#   Qstar cross-section for 13 TeV for f = 1.0 at interval of 50 GeV and eff for given cut
#(GeV)   (pb)
Mass Qstar_f1p0_NoDPhi  Qstar_f1p0_Eff
1000  1.635e+01          0.503883
1100  1.068e+01  	 0.511765  
1200  7.036e+00  	 0.519647  
1300  4.827e+00  	 0.527529  
1400  3.363e+00    	 0.535411  
1500  2.373e+00  	 0.543294  
1600  1.709e+00  	 0.551176  
1700  1.243e+00  	 0.559058  
1800  9.292e-01  	 0.56694   
1900  6.885e-01  	 0.574822  
2000  5.244e-01  	 0.582704  
2100  3.951e-01  	 0.584438  
2200  3.010e-01  	 0.586173  
2300  2.322e-01 	 0.587907  
2400  1.805e-01   	 0.589641  
2500  1.402e-01  	 0.591375  
2600  1.099e-01  	 0.593109  
2700  8.650e-02		 0.594843  
2800  6.787e-02    	 0.596577  
2900  5.372e-02 	 0.598311  
3000  4.273e-02   	 0.600045  
3100  3.391e-02 	 0.599913  
3200  2.720e-02   	 0.599781  
3300  2.186e-02  	 0.599649  
3400  1.744e-02  	 0.599517  
3500  1.417e-02  	 0.599385  
3600  1.126e-02  	 0.599253  
3700  9.062e-03 	 0.599121  
3800  7.276e-03   	 0.598989  
3900  5.911e-03  	 0.598857  
4000  4.814e-03  	 0.598725  
4100  3.870e-03  	 0.598683  
4200  3.156e-03  	 0.598641  
4300  2.554e-03  	 0.598599  
4400  2.057e-03  	 0.598557  
4500  1.656e-03  	 0.598515  
4600  1.354e-03  	 0.598473  
4700  1.089e-03  	 0.598431  
4800  8.813e-04  	 0.598389  
4900  7.214e-04  	 0.598347  
5000  5.836e-04  	 0.598305  
5100  4.734e-04  	 0.597227  
5200  3.807e-04  	 0.596149  
5300  3.108e-04  	 0.595071  
5400  2.517e-04  	 0.593993  
5500  2.051e-04 	 0.592915
5600  1.650e-04 	 0.591836
5700  1.339e-04 	 0.590758
5800  1.072e-04 	 0.58968 
5900  8.685e-05 	 0.588602
6000  7.085e-05 	 0.587524
