#   Bstar cross-section for 13 TeV for f = 1.0
#   (GeV)    (pb)
Mass Bstar_f1p0 Bstar_f1p0_Eff 
1000 2.148e-01 	 0.290111
1100 1.286e-01 	 0.288076
1200 7.982e-02 	 0.286042
1300 5.043e-02 	 0.284007
1400 3.314e-02 	 0.281972
1500 2.204e-02 	 0.279937
1600 1.501e-02 	 0.276618
1700 1.026e-02 	 0.273298
1800 7.191e-03 	 0.269979
1900 5.034e-03 	 0.26666 
2000 3.585e-03 	 0.26334 
2100 2.592e-03 	 0.259386
2200 1.865e-03 	 0.255432
2300 1.366e-03 	 0.251478
2400 1.000e-03 	 0.247524
2500 7.488e-04 	 0.243569
2600 5.524e-04 	 0.240403
2700 4.116e-04 	 0.237238
2800 3.058e-04 	 0.234072
2900 2.337e-04 	 0.230906
3000 1.766e-04 	 0.22774 
3100 1.326e-04 	 0.226535
3200 1.013e-04 	 0.22533 
3300 7.705e-05 	 0.224125
3400 5.879e-05 	 0.22292 
3500 4.517e-05 	 0.221715
3600 3.442e-05 	 0.220797
3700 2.646e-05 	 0.21988 
3800 2.011e-05 	 0.218962
3900 1.566e-05 	 0.218044
4000 1.202e-05 	 0.217127
4100 9.259e-06 	 0.216768
4200 7.101e-06 	 0.21641 
4300 5.442e-06 	 0.216051
4400 4.238e-06 	 0.215693
4500 3.289e-06 	 0.215334
4600 2.545e-06 	 0.215426
4700 1.974e-06 	 0.215519
4800 1.528e-06 	 0.215611
4900 1.182e-06 	 0.215704
5000 9.216e-07   0.215796
