#   Qstar cross-section for 13 TeV for f = 1.0 at interval of 50 GeV and eff for given cut
#(GeV)   (pb)
Mass Qstar_f1p0_DEta_2.2  Qstar_f1p0_Eff
1000  1.635e+01            0.544779
1100  1.068e+01  	   0.554123
1200  7.036e+00  	   0.563467
1300  4.827e+00  	   0.572811
1400  3.363e+00    	   0.582155
1500  2.373e+00  	   0.591499
1600  1.709e+00  	   0.600843
1700  1.243e+00  	   0.610187
1800  9.292e-01  	   0.619531
1900  6.885e-01  	   0.628875
2000  5.244e-01  	   0.638219
2100  3.951e-01  	   0.640383
2200  3.010e-01  	   0.642547
2300  2.322e-01 	   0.644712
2400  1.805e-01   	   0.646876
2500  1.402e-01  	   0.64904 
2600  1.099e-01  	   0.651204
2700  8.650e-02		   0.653368
2800  6.787e-02    	   0.655532
2900  5.372e-02 	   0.657696
3000  4.273e-02   	   0.65986 
3100  3.391e-02 	   0.660194
3200  2.720e-02   	   0.660527
3300  2.186e-02  	   0.66086 
3400  1.744e-02  	   0.661193
3500  1.417e-02  	   0.661527
3600  1.126e-02  	   0.66186 
3700  9.062e-03 	   0.662193
3800  7.276e-03   	   0.662526
3900  5.911e-03  	   0.662859
4000  4.814e-03  	   0.663193
4100  3.870e-03  	   0.663404
4200  3.156e-03  	   0.663616
4300  2.554e-03  	   0.663827
4400  2.057e-03  	   0.664038
4500  1.656e-03  	   0.66425 
4600  1.354e-03  	   0.664461
4700  1.089e-03  	   0.664673
4800  8.813e-04  	   0.664884
4900  7.214e-04  	   0.665096
5000  5.836e-04  	   0.665307
5100  4.734e-04  	   0.663965
5200  3.807e-04  	   0.662622
5300  3.108e-04  	   0.66128 
5400  2.517e-04  	   0.659937
