#   Qstar cross-section for 13 TeV for f = 1.0 at interval of 50 GeV and eff for given cut
#(GeV)   (pb)
Mass Qstar_f1p0_DEta_1.0  Qstar_f1p0_Eff
1000  1.635e+01            0.336357 
1100  1.068e+01  	   0.34128 
1200  7.036e+00  	   0.346203
1300  4.827e+00  	   0.351126
1400  3.363e+00    	   0.356049
1500  2.373e+00  	   0.360972
1600  1.709e+00  	   0.365895
1700  1.243e+00  	   0.370818
1800  9.292e-01  	   0.375741
1900  6.885e-01  	   0.380664
2000  5.244e-01  	   0.385587
2100  3.951e-01  	   0.386547
2200  3.010e-01  	   0.387506
2300  2.322e-01 	   0.388466
2400  1.805e-01   	   0.389425
2500  1.402e-01  	   0.390385
2600  1.099e-01  	   0.391344
2700  8.650e-02		   0.392304
2800  6.787e-02    	   0.393263
2900  5.372e-02 	   0.394223
3000  4.273e-02   	   0.395182
3100  3.391e-02 	   0.394444
3200  2.720e-02   	   0.393705
3300  2.186e-02  	   0.392966
3400  1.744e-02  	   0.392228
3500  1.417e-02  	   0.391489
3600  1.126e-02  	   0.390751
3700  9.062e-03 	   0.390012
3800  7.276e-03   	   0.389274
3900  5.911e-03  	   0.388535
4000  4.814e-03  	   0.387796
4100  3.870e-03  	   0.387912
4200  3.156e-03  	   0.388028
4300  2.554e-03  	   0.388144
4400  2.057e-03  	   0.388259
4500  1.656e-03  	   0.388375
4600  1.354e-03  	   0.388491
4700  1.089e-03  	   0.388607
4800  8.813e-04  	   0.388722
4900  7.214e-04  	   0.388838
5000  5.836e-04  	   0.388954
5100  4.734e-04  	   0.388241
5200  3.807e-04  	   0.387529
5300  3.108e-04  	   0.386816
5400  2.517e-04  	   0.386104
